***************************************************************************************************************************************************************************************** 

# Name                   Value      Units             
Sref_                  54.6970000 Lunit^2             
Cref_                   2.2888000 Lunit               
Bref_                  24.5800000 Lunit               
Xcg_                    9.8215000 Lunit               
Ycg_                    0.0000000 Lunit               
Zcg_                    0.6875000 Lunit               
Mach_                   0.4900000 no_unit             
AoA_                    0.0000000 deg                 
Beta_                   0.0000000 deg                 
Rho_                    0.6530000 Munit/Lunit^3       
Vinf_                 154.3000000 Lunit/Tunit         
Roll__Rate              0.0000000 rad/Tunit           
Pitch_Rate              0.0000000 rad/Tunit           
Yaw___Rate              0.0000000 rad/Tunit           

   Wing       S        Yavg     Chord     V/Vref      Cl        Cd        Cs        Cx        Cy       Cz        Cmx       Cmy       Cmz 
        1   0.02652   0.16964   2.57000   1.00000   0.49214   0.00462  -0.00008   0.00486  -0.00008   0.49214   0.03250   0.03159  -0.00032 
        1   0.06659   0.50893   2.57000   1.00000   0.49252   0.00498  -0.00000   0.00486  -0.00000   0.49252   0.09753   0.03199  -0.00096 
        1   0.09367   0.84821   2.57000   1.00000   0.49275   0.00532   0.00000   0.00492   0.00000   0.49275   0.16263   0.03200  -0.00162 
        1   0.12075   1.18750   2.57000   1.00000   0.49261   0.00544  -0.00000   0.00491  -0.00000   0.49261   0.22761   0.03203  -0.00227 
        1   0.14784   1.52679   2.57000   1.00000   0.49232   0.00578  -0.00000   0.00504  -0.00000   0.49232   0.29248   0.03129  -0.00299 
        1   0.17492   1.86607   2.57000   1.00000   0.49099   0.00569  -0.00000   0.00501  -0.00000   0.49099   0.35651   0.03129  -0.00364 
        1   0.20200   2.20536   2.57000   1.00000   0.48915   0.00548  -0.00000   0.00498  -0.00000   0.48915   0.41975   0.03109  -0.00427 
        1   0.22909   2.54464   2.57000   1.00000   0.48756   0.00580  -0.00000   0.00494  -0.00000   0.48756   0.48275   0.03106  -0.00489 
        1   0.25617   2.88393   2.57000   1.00000   0.48457   0.00477  -0.00000   0.00481  -0.00000   0.48457   0.54376   0.03155  -0.00540 
        1   0.28325   3.22321   2.57000   1.00000   0.48464   0.00603   0.00000   0.00486   0.00000   0.48464   0.60783   0.03159  -0.00609 
        1   0.31034   3.56250   2.57000   1.00000   0.48517   0.00743  -0.00000   0.00508  -0.00000   0.48517   0.67254   0.03077  -0.00704 
        1   0.33742   3.90179   2.57000   1.00000   0.48357   0.00799  -0.00000   0.00508  -0.00000   0.48357   0.73415   0.03008  -0.00772 
        1   0.36450   4.24107   2.57000   1.00000   0.47970   0.00787   0.00000   0.00537   0.00000   0.47970   0.79161   0.02937  -0.00886 
        1   0.39159   4.58036   2.57000   1.00000   0.47458   0.00820   0.00000   0.00523   0.00000   0.47458   0.84581   0.02854  -0.00932 
        1   0.42266   5.01761   2.52998   1.00000   0.47088   0.00641  -0.01915   0.00499  -0.01915   0.47088   0.94053   0.02640  -0.00972 
        1   0.46171   5.55563   2.44995   1.00000   0.47524   0.00697  -0.01930   0.00503  -0.01930   0.47524   1.08480   0.02203  -0.01145 
        1   0.50478   6.09363   2.36992   1.00000   0.47729   0.00654  -0.01934   0.00498  -0.01934   0.47729   1.23482   0.01793  -0.01303 
        1   0.54784   6.63164   2.28990   1.00000   0.47908   0.00677  -0.01938   0.00484  -0.01938   0.47908   1.39551   0.01309  -0.01446 
        1   0.59090   7.16964   2.20987   1.00000   0.47797   0.00624  -0.01931   0.00454  -0.01931   0.47797   1.55927   0.00794  -0.01538 
        1   0.63396   7.70764   2.12986   1.00000   0.47720   0.00673  -0.01927   0.00439  -0.01927   0.47720   1.73602   0.00196  -0.01679 
        1   0.67703   8.24563   2.04985   1.00000   0.47151   0.00596  -0.01908   0.00401  -0.01908   0.47151   1.90626  -0.00394  -0.01721 
        1   0.72009   8.78362   1.96984   1.00000   0.46465   0.00610  -0.01880   0.00372  -0.01880   0.46465   2.08198  -0.00963  -0.01789 
        1   0.76315   9.32160   1.88984   1.00000   0.45185   0.00486  -0.01835   0.00339  -0.01835   0.45185   2.23924  -0.01619  -0.01826 
        1   0.80622   9.85958   1.80985   1.00000   0.44048   0.00528  -0.01794   0.00295  -0.01794   0.44048   2.41058  -0.02321  -0.01784 
        1   0.84928  10.39755   1.72986   1.00000   0.42742   0.00646  -0.01772   0.00294  -0.01772   0.42742   2.58066  -0.03412  -0.01980 
        1   0.89234  10.93551   1.64989   1.00000   0.40237   0.00684  -0.01687   0.00253  -0.01687   0.40237   2.67877  -0.04133  -0.01918 
        1   0.93541  11.47345   1.56992   1.00000   0.35945   0.00739  -0.01556   0.00195  -0.01556   0.35945   2.63872  -0.04973  -0.01688 
        1   0.97847  12.01139   1.48997   1.00000   0.26993   0.00601  -0.01288   0.00024  -0.01288   0.26993   2.18652  -0.04543  -0.00447 
        2   0.06644   0.13010   1.96250   1.00000  -0.09275  -0.00039  -0.00002  -0.00127  -0.00002  -0.09275  -0.00615   0.51258  -0.00002 
        2   0.16624   0.39151   1.90750   1.00000  -0.09548  -0.00044  -0.00000  -0.00130  -0.00000  -0.09548  -0.01963   0.54357   0.00027 
        2   0.23294   0.65292   1.85250   1.00000  -0.09826  -0.00044  -0.00000  -0.00142  -0.00000  -0.09826  -0.03467   0.57679   0.00050 
        2   0.29964   0.91433   1.79750   1.00000  -0.10055  -0.00044  -0.00000  -0.00145  -0.00000  -0.10055  -0.05118   0.60916   0.00074 
        2   0.36634   1.17574   1.74250   1.00000  -0.10247  -0.00044  -0.00000  -0.00160  -0.00000  -0.10247  -0.06918   0.64119   0.00108 
        2   0.43304   1.43715   1.68750   1.00000  -0.10398  -0.00043  -0.00000  -0.00163  -0.00000  -0.10398  -0.08860   0.67284   0.00139 
        2   0.49974   1.69855   1.63250   1.00000  -0.10463  -0.00046  -0.00000  -0.00167  -0.00000  -0.10463  -0.10891   0.70084   0.00174 
        2   0.56644   1.95995   1.57750   1.00000  -0.10526  -0.00043  -0.00000  -0.00169  -0.00000  -0.10526  -0.13083   0.73103   0.00209 
        2   0.63314   2.22136   1.52250   1.00000  -0.10563  -0.00034  -0.00000  -0.00167  -0.00000  -0.10563  -0.15417   0.76260   0.00242 
        2   0.69984   2.48275   1.46750   1.00000  -0.10459  -0.00026  -0.00000  -0.00166  -0.00000  -0.10459  -0.17700   0.78481   0.00280 
        2   0.76655   2.74415   1.41250   1.00000  -0.10112  -0.00022  -0.00000  -0.00174  -0.00000  -0.10112  -0.19650   0.78884   0.00333 
        2   0.83325   3.00555   1.35750   1.00000  -0.09473  -0.00013  -0.00001  -0.00159  -0.00001  -0.09473  -0.20979   0.77063   0.00346 
        2   0.89995   3.26694   1.30250   1.00000  -0.08290  -0.00007  -0.00001  -0.00144  -0.00001  -0.08290  -0.20796   0.70387   0.00353 
        2   0.96665   3.52833   1.24750   1.00000  -0.06104  -0.00004  -0.00001  -0.00105  -0.00001  -0.06104  -0.17274   0.54233   0.00290 



Comp      Component-Name                             Mach       AoA      Beta       CL        CDi       CS       CFx       CFy       CFz       Cmx       Cmy       Cmz 
1         wing                                       0.49000   0.00000   0.00000   0.23388   0.00314  -0.00511   0.00218  -0.00511   0.23388   0.05108   0.00735  -0.00046 
2         horizontal                                 0.49000   0.00000   0.00000  -0.01046  -0.00004  -0.00000  -0.00016  -0.00000  -0.01046  -0.00070   0.04999   0.00001 
3         PodGeom                                    0.49000   0.00000   0.00000   0.00000   0.00000  -0.00000  -0.00000  -0.00000   0.00000  -0.00000  -0.00000  -0.00001 
4         PodGeom                                    0.49000   0.00000   0.00000  -0.00000   0.00000   0.00000   0.00000   0.00000  -0.00000  -0.00000   0.00000   0.00000 
5         PodGeom                                    0.49000   0.00000   0.00000   0.00006   0.00000   0.00000   0.00001   0.00000   0.00006   0.00001  -0.00095  -0.00000 
6         PodGeom                                    0.49000   0.00000   0.00000   0.00006   0.00000  -0.00000   0.00001  -0.00000   0.00006   0.00001  -0.00084  -0.00000 



***************************************************************************************************************************************************************************************** 

# Name                   Value      Units             
Sref_                  54.6970000 Lunit^2             
Cref_                   2.2888000 Lunit               
Bref_                  24.5800000 Lunit               
Xcg_                    9.8215000 Lunit               
Ycg_                    0.0000000 Lunit               
Zcg_                    0.6875000 Lunit               
Mach_                   0.4900000 no_unit             
AoA_                    3.0000000 deg                 
Beta_                   0.0000000 deg                 
Rho_                    0.6530000 Munit/Lunit^3       
Vinf_                 154.3000000 Lunit/Tunit         
Roll__Rate              0.0000000 rad/Tunit           
Pitch_Rate              0.0000000 rad/Tunit           
Yaw___Rate              0.0000000 rad/Tunit           

   Wing       S        Yavg     Chord     V/Vref      Cl        Cd        Cs        Cx        Cy       Cz        Cmx       Cmy       Cmz 
        1   0.02652   0.16964   2.57000   1.00000   0.78208   0.01542   0.00024  -0.02883   0.00024   0.78164   0.05149   0.05960   0.00196 
        1   0.06659   0.50893   2.57000   1.00000   0.78200   0.01622   0.00000  -0.02884   0.00000   0.78156   0.15477   0.06015   0.00571 
        1   0.09367   0.84821   2.57000   1.00000   0.78246   0.01697   0.00000  -0.02873   0.00000   0.78203   0.25810   0.06016   0.00948 
        1   0.12075   1.18750   2.57000   1.00000   0.78219   0.01709  -0.00000  -0.02874  -0.00000   0.78176   0.36122   0.06025   0.01328 
        1   0.14784   1.52679   2.57000   1.00000   0.78192   0.01780  -0.00000  -0.02840  -0.00000   0.78150   0.46427   0.05913   0.01687 
        1   0.17492   1.86607   2.57000   1.00000   0.78013   0.01738  -0.00000  -0.02838  -0.00000   0.77972   0.56615   0.05912   0.02060 
        1   0.20200   2.20536   2.57000   1.00000   0.77762   0.01695  -0.00000  -0.02825  -0.00000   0.77721   0.66694   0.05907   0.02424 
        1   0.22909   2.54464   2.57000   1.00000   0.77507   0.01733  -0.00000  -0.02820  -0.00000   0.77465   0.76701   0.05904   0.02793 
        1   0.25617   2.88393   2.57000   1.00000   0.77021   0.01469  -0.00000  -0.02836  -0.00000   0.76978   0.86381   0.05922   0.03183 
        1   0.28325   3.22321   2.57000   1.00000   0.76866   0.01648  -0.00000  -0.02823  -0.00000   0.76824   0.96350   0.05893   0.03541 
        1   0.31034   3.56250   2.57000   1.00000   0.76781   0.01837  -0.00000  -0.02785  -0.00000   0.76740   1.06376   0.05749   0.03861 
        1   0.33742   3.90179   2.57000   1.00000   0.76433   0.01911  -0.00000  -0.02768  -0.00000   0.76393   1.15980   0.05642   0.04202 
        1   0.36450   4.24107   2.57000   1.00000   0.75847   0.01856  -0.00000  -0.02675  -0.00000   0.75811   1.25105   0.05528   0.04415 
        1   0.39159   4.58036   2.57000   1.00000   0.75177   0.01928   0.00000  -0.02664   0.00000   0.75141   1.33919   0.05397   0.04749 
        1   0.42266   5.01761   2.52998   1.00000   0.74973   0.01633  -0.02693  -0.02675  -0.02693   0.74936   1.49557   0.05064   0.05301 
        1   0.46171   5.55563   2.44995   1.00000   0.75832   0.01710  -0.02717  -0.02706  -0.02717   0.75794   1.72882   0.04391   0.06105 
        1   0.50478   6.09363   2.36992   1.00000   0.76378   0.01599  -0.02730  -0.02733  -0.02730   0.76339   1.97363   0.03674   0.06970 
        1   0.54784   6.63164   2.28990   1.00000   0.76934   0.01687  -0.02746  -0.02786  -0.02746   0.76894   2.23839   0.02832   0.07981 
        1   0.59090   7.16964   2.20987   1.00000   0.76951   0.01536  -0.02741  -0.02850  -0.02741   0.76907   2.50738   0.01943   0.09131 
        1   0.63396   7.70764   2.12986   1.00000   0.77090   0.01673  -0.02742  -0.02888  -0.02742   0.77044   2.80112   0.00913   0.10300 
        1   0.67703   8.24563   2.04985   1.00000   0.76455   0.01515  -0.02722  -0.02930  -0.02722   0.76406   3.08725  -0.00140   0.11605 
        1   0.72009   8.78362   1.96984   1.00000   0.75793   0.01640  -0.02694  -0.02950  -0.02694   0.75742   3.39191  -0.01198   0.12943 
        1   0.76315   9.32160   1.88984   1.00000   0.74009   0.01327  -0.02632  -0.02920  -0.02632   0.73958   3.66311  -0.02357   0.14161 
        1   0.80622   9.85958   1.80985   1.00000   0.72487   0.01473  -0.02578  -0.02937  -0.02578   0.72432   3.96181  -0.03603   0.15722 
        1   0.84928  10.39755   1.72986   1.00000   0.70542   0.01823  -0.02554  -0.02866  -0.02554   0.70489   4.25362  -0.05517   0.16889 
        1   0.89234  10.93551   1.64989   1.00000   0.66821   0.02045  -0.02438  -0.02742  -0.02438   0.66769   4.44273  -0.06869   0.17801 
        1   0.93541  11.47345   1.56992   1.00000   0.59784   0.02229  -0.02230  -0.02557  -0.02230   0.59732   4.38237  -0.08340   0.18279 
        1   0.97847  12.01139   1.48997   1.00000   0.45114   0.01852  -0.01785  -0.02192  -0.01785   0.45062   3.64808  -0.07716   0.17276 
        2   0.06644   0.13010   1.96250   1.00000   0.05604   0.00113  -0.00003  -0.00109  -0.00003   0.05606   0.00384  -0.31289  -0.00012 
        2   0.16624   0.39151   1.90750   1.00000   0.05806   0.00121   0.00000  -0.00112   0.00000   0.05808   0.01194  -0.33417   0.00023 
        2   0.23294   0.65292   1.85250   1.00000   0.05938   0.00124   0.00000  -0.00115   0.00000   0.05940   0.02096  -0.35258   0.00041 
        2   0.29964   0.91433   1.79750   1.00000   0.06037   0.00126   0.00000  -0.00118   0.00000   0.06039   0.03074  -0.36992   0.00061 
        2   0.36634   1.17574   1.74250   1.00000   0.06063   0.00123   0.00000  -0.00113   0.00000   0.06066   0.04095  -0.38385   0.00077 
        2   0.43304   1.43715   1.68750   1.00000   0.06124   0.00126   0.00000  -0.00116   0.00000   0.06126   0.05220  -0.40098   0.00100 
        2   0.49974   1.69855   1.63250   1.00000   0.06135   0.00125   0.00000  -0.00118   0.00000   0.06137   0.06388  -0.41591   0.00124 
        2   0.56644   1.95995   1.57750   1.00000   0.06154   0.00127   0.00000  -0.00118   0.00000   0.06156   0.07651  -0.43252   0.00148 
        2   0.63314   2.22136   1.52250   1.00000   0.06159   0.00130   0.00000  -0.00118   0.00000   0.06161   0.08992  -0.44983   0.00173 
        2   0.69984   2.48275   1.46750   1.00000   0.06075   0.00130   0.00000  -0.00116   0.00000   0.06078   0.10285  -0.46125   0.00198 
        2   0.76655   2.74415   1.41250   1.00000   0.05851   0.00126   0.00000  -0.00114   0.00000   0.05853   0.11374  -0.46219   0.00223 
        2   0.83325   3.00555   1.35750   1.00000   0.05463   0.00120   0.00000  -0.00106   0.00000   0.05465   0.12102  -0.44985   0.00238 
        2   0.89995   3.26694   1.30250   1.00000   0.04770   0.00105   0.00001  -0.00100   0.00001   0.04771   0.11969  -0.41020   0.00259 
        2   0.96665   3.52833   1.24750   1.00000   0.03550   0.00075   0.00004  -0.00072   0.00004   0.03551   0.10046  -0.31932   0.00240 



Comp      Component-Name                             Mach       AoA      Beta       CL        CDi       CS       CFx       CFy       CFz       Cmx       Cmy       Cmz 
1         wing                                       0.49000   3.00000   0.00000   0.37551   0.00856  -0.00726  -0.01406  -0.00726   0.37529   0.08263   0.01514   0.00313 
2         horizontal                                 0.49000   3.00000   0.00000   0.00617   0.00013   0.00000  -0.00012   0.00000   0.00618   0.00041  -0.02986   0.00001 
3         PodGeom                                    0.49000   3.00000   0.00000   0.00000   0.00000  -0.00001   0.00000  -0.00001   0.00000   0.00000   0.00000  -0.00001 
4         PodGeom                                    0.49000   3.00000   0.00000   0.00000   0.00000   0.00000   0.00000   0.00000   0.00000  -0.00000   0.00000   0.00000 
5         PodGeom                                    0.49000   3.00000   0.00000   0.00014   0.00000  -0.00000  -0.00000  -0.00000   0.00014   0.00002  -0.00066   0.00000 
6         PodGeom                                    0.49000   3.00000   0.00000   0.00013   0.00000   0.00000  -0.00000   0.00000   0.00013   0.00002  -0.00053   0.00000 



***************************************************************************************************************************************************************************************** 

# Name                   Value      Units             
Sref_                  54.6970000 Lunit^2             
Cref_                   2.2888000 Lunit               
Bref_                  24.5800000 Lunit               
Xcg_                    9.8215000 Lunit               
Ycg_                    0.0000000 Lunit               
Zcg_                    0.6875000 Lunit               
Mach_                   0.4900000 no_unit             
AoA_                    6.0000000 deg                 
Beta_                   0.0000000 deg                 
Rho_                    0.6530000 Munit/Lunit^3       
Vinf_                 154.3000000 Lunit/Tunit         
Roll__Rate              0.0000000 rad/Tunit           
Pitch_Rate              0.0000000 rad/Tunit           
Yaw___Rate              0.0000000 rad/Tunit           

   Wing       S        Yavg     Chord     V/Vref      Cl        Cd        Cs        Cx        Cy       Cz        Cmx       Cmy       Cmz 
        1   0.02652   0.16964   2.57000   1.00000   1.08575   0.03394   0.00028  -0.09102   0.00028   1.08216   0.07129   0.08499   0.00609 
        1   0.06659   0.50893   2.57000   1.00000   1.08485   0.03537   0.00000  -0.09096   0.00000   1.08127   0.21412   0.08569   0.01801 
        1   0.09367   0.84821   2.57000   1.00000   1.08553   0.03667   0.00000  -0.09082   0.00000   1.08197   0.35710   0.08573   0.02998 
        1   0.12075   1.18750   2.57000   1.00000   1.08506   0.03672  -0.00000  -0.09080  -0.00000   1.08150   0.49972   0.08586   0.04196 
        1   0.14784   1.52679   2.57000   1.00000   1.08479   0.03786  -0.00000  -0.09018  -0.00000   1.08129   0.64237   0.08441   0.05357 
        1   0.17492   1.86607   2.57000   1.00000   1.08258   0.03674  -0.00000  -0.09008  -0.00000   1.07908   0.78352   0.08440   0.06541 
        1   0.20200   2.20536   2.57000   1.00000   1.07938   0.03581  -0.00000  -0.08969  -0.00000   1.07590   0.92325   0.08452   0.07697 
        1   0.22909   2.54464   2.57000   1.00000   1.07576   0.03584  -0.00000  -0.08947  -0.00000   1.07229   1.06171   0.08449   0.08859 
        1   0.25617   2.88393   2.57000   1.00000   1.06902   0.03051  -0.00000  -0.08959  -0.00000   1.06549   1.19564   0.08431   0.10053 
        1   0.28325   3.22321   2.57000   1.00000   1.06542   0.03225  -0.00000  -0.08917  -0.00000   1.06191   1.33182   0.08360   0.11184 
        1   0.31034   3.56250   2.57000   1.00000   1.06288   0.03393  -0.00000  -0.08846  -0.00000   1.05944   1.46858   0.08146   0.12262 
        1   0.33742   3.90179   2.57000   1.00000   1.05696   0.03426  -0.00000  -0.08786  -0.00000   1.05354   1.59950   0.07991   0.13340 
        1   0.36450   4.24107   2.57000   1.00000   1.04895   0.03267  -0.00000  -0.08595  -0.00000   1.04569   1.72563   0.07837   0.14184 
        1   0.39159   4.58036   2.57000   1.00000   1.04067   0.03370   0.00000  -0.08547   0.00000   1.03742   1.84893   0.07662   0.15232 
        1   0.42266   5.01761   2.52998   1.00000   1.04139   0.02963  -0.03449  -0.08564  -0.03449   1.03812   2.07096   0.07210   0.16955 
        1   0.46171   5.55563   2.44995   1.00000   1.05431   0.03055  -0.03483  -0.08670  -0.03483   1.05100   2.39627   0.06230   0.19598 
        1   0.50478   6.09363   2.36992   1.00000   1.06338   0.02871  -0.03504  -0.08754  -0.03504   1.06004   2.73949   0.05128   0.22412 
        1   0.54784   6.63164   2.28990   1.00000   1.07286   0.03079  -0.03533  -0.08889  -0.03533   1.06942   3.11196   0.03844   0.25609 
        1   0.59090   7.16964   2.20987   1.00000   1.07426   0.02797  -0.03531  -0.09004  -0.03531   1.07071   3.48959   0.02487   0.29044 
        1   0.63396   7.70764   2.12986   1.00000   1.07791   0.03077  -0.03538  -0.09090  -0.03538   1.07429   3.90455   0.00938   0.32682 
        1   0.67703   8.24563   2.04985   1.00000   1.07062   0.02827  -0.03519  -0.09132  -0.03519   1.06691   4.30959  -0.00700   0.36483 
        1   0.72009   8.78362   1.96984   1.00000   1.06427   0.03147  -0.03491  -0.09155  -0.03491   1.06050   4.74776  -0.02360   0.40531 
        1   0.76315   9.32160   1.88984   1.00000   1.04104   0.02569  -0.03416  -0.08998  -0.03416   1.03731   5.13630  -0.04133   0.44050 
        1   0.80622   9.85958   1.80985   1.00000   1.02180   0.02887  -0.03349  -0.08960  -0.03349   1.01801   5.56659  -0.06040   0.48435 
        1   0.84928  10.39755   1.72986   1.00000   0.99451   0.03590  -0.03327  -0.08740  -0.03327   0.99081   5.97737  -0.08870   0.52078 
        1   0.89234  10.93551   1.64989   1.00000   0.94467   0.04125  -0.03195  -0.08312  -0.03195   0.94114   6.26061  -0.10912   0.54573 
        1   0.93541  11.47345   1.56992   1.00000   0.84544   0.04508  -0.02926  -0.07528  -0.02926   0.84218   6.17745  -0.12953   0.54451 
        1   0.97847  12.01139   1.48997   1.00000   0.64582   0.03822  -0.02265  -0.06109  -0.02265   0.64296   5.20448  -0.12140   0.48714 
        2   0.06644   0.13010   1.96250   1.00000   0.20448   0.00777  -0.00028  -0.01100  -0.00028   0.20445   0.01430  -1.15583  -0.00090 
        2   0.16624   0.39151   1.90750   1.00000   0.21166   0.00792   0.00000  -0.01134   0.00000   0.21164   0.04350  -1.23294   0.00235 
        2   0.23294   0.65292   1.85250   1.00000   0.21596   0.00824   0.00000  -0.01153   0.00000   0.21594   0.07617  -1.29727   0.00410 
        2   0.29964   0.91433   1.79750   1.00000   0.21914   0.00843   0.00001  -0.01172   0.00001   0.21912   0.11153  -1.35854   0.00601 
        2   0.36634   1.17574   1.74250   1.00000   0.21976   0.00799   0.00001  -0.01167   0.00001   0.21974   0.14834  -1.40715   0.00793 
        2   0.43304   1.43715   1.68750   1.00000   0.22115   0.00814   0.00001  -0.01178   0.00001   0.22113   0.18840  -1.46435   0.01009 
        2   0.49974   1.69855   1.63250   1.00000   0.22152   0.00800   0.00001  -0.01205   0.00001   0.22147   0.23051  -1.51894   0.01261 
        2   0.56644   1.95995   1.57750   1.00000   0.22205   0.00817   0.00001  -0.01208   0.00001   0.22200   0.27591  -1.57866   0.01510 
        2   0.63314   2.22136   1.52250   1.00000   0.22261   0.00871   0.00001  -0.01166   0.00001   0.22261   0.32487  -1.64443   0.01711 
        2   0.69984   2.48275   1.46750   1.00000   0.21975   0.00893   0.00001  -0.01153   0.00001   0.21975   0.37188  -1.68740   0.01960 
        2   0.76655   2.74415   1.41250   1.00000   0.21148   0.00860   0.00002  -0.01127   0.00002   0.21146   0.41091  -1.68957   0.02206 
        2   0.83325   3.00555   1.35750   1.00000   0.19814   0.00839   0.00002  -0.01054   0.00002   0.19812   0.43875  -1.65021   0.02350 
        2   0.89995   3.26694   1.30250   1.00000   0.17478   0.00772   0.00008  -0.00993   0.00008   0.17470   0.43817  -1.52106   0.02566 
        2   0.96665   3.52833   1.24750   1.00000   0.13406   0.00536   0.00073  -0.00719   0.00073   0.13405   0.37779  -1.22038   0.02724 



Comp      Component-Name                             Mach       AoA      Beta       CL        CDi       CS       CFx       CFy       CFz       Cmx       Cmy       Cmz 
1         wing                                       0.49000   6.00000   0.00000   0.52354   0.01666  -0.00937  -0.04412  -0.00937   0.52179   0.11530   0.02041   0.00978 
2         horizontal                                 0.49000   6.00000   0.00000   0.02242   0.00087   0.00000  -0.00120   0.00000   0.02242   0.00148  -0.10971   0.00008 
3         PodGeom                                    0.49000   6.00000   0.00000   0.00000   0.00000  -0.00002   0.00000  -0.00002   0.00000   0.00000   0.00000  -0.00001 
4         PodGeom                                    0.49000   6.00000   0.00000  -0.00000   0.00000   0.00001   0.00000   0.00001   0.00000  -0.00000   0.00000   0.00001 
5         PodGeom                                    0.49000   6.00000   0.00000   0.00025   0.00000  -0.00000  -0.00002  -0.00000   0.00025   0.00004  -0.00037   0.00000 
6         PodGeom                                    0.49000   6.00000   0.00000   0.00024   0.00000   0.00000  -0.00002   0.00000   0.00024   0.00004  -0.00022   0.00000 



***************************************************************************************************************************************************************************************** 

# Name                   Value      Units             
Sref_                  54.6970000 Lunit^2             
Cref_                   2.2888000 Lunit               
Bref_                  24.5800000 Lunit               
Xcg_                    9.8215000 Lunit               
Ycg_                    0.0000000 Lunit               
Zcg_                    0.6875000 Lunit               
Mach_                   0.4900000 no_unit             
AoA_                    9.0000000 deg                 
Beta_                   0.0000000 deg                 
Rho_                    0.6530000 Munit/Lunit^3       
Vinf_                 154.3000000 Lunit/Tunit         
Roll__Rate              0.0000000 rad/Tunit           
Pitch_Rate              0.0000000 rad/Tunit           
Yaw___Rate              0.0000000 rad/Tunit           

   Wing       S        Yavg     Chord     V/Vref      Cl        Cd        Cs        Cx        Cy       Cz        Cmx       Cmy       Cmz 
        1   0.02652   0.16964   2.57000   1.00000   1.39907   0.06209   0.00045  -0.18310   0.00045   1.38751   0.09137   0.10662   0.01222 
        1   0.06659   0.50893   2.57000   1.00000   1.39711   0.06448   0.00000  -0.18284   0.00000   1.38557   0.27438   0.10746   0.03621 
        1   0.09367   0.84821   2.57000   1.00000   1.39801   0.06679   0.00000  -0.18267   0.00000   1.38650   0.45761   0.10751   0.06029 
        1   0.12075   1.18750   2.57000   1.00000   1.39722   0.06699  -0.00000  -0.18259  -0.00000   1.38572   0.64029   0.10769   0.08437 
        1   0.14784   1.52679   2.57000   1.00000   1.39683   0.06869  -0.00000  -0.18163  -0.00000   1.38548   0.82309   0.10602   0.10790 
        1   0.17492   1.86607   2.57000   1.00000   1.39392   0.06583   0.00000  -0.18141   0.00000   1.38256   1.00388   0.10618   0.13172 
        1   0.20200   2.20536   2.57000   1.00000   1.38994   0.06370   0.00000  -0.18066   0.00000   1.37866   1.18305   0.10654   0.15503 
        1   0.22909   2.54464   2.57000   1.00000   1.38525   0.06269   0.00000  -0.18017   0.00000   1.37398   1.36042   0.10645   0.17839 
        1   0.25617   2.88393   2.57000   1.00000   1.37685   0.05376   0.00000  -0.18013   0.00000   1.36548   1.53227   0.10573   0.20213 
        1   0.28325   3.22321   2.57000   1.00000   1.37089   0.05434  -0.00000  -0.17916  -0.00000   1.35960   1.70517   0.10446   0.22470 
        1   0.31034   3.56250   2.57000   1.00000   1.36652   0.05384  -0.00000  -0.17791  -0.00000   1.35537   1.87880   0.10164   0.24662 
        1   0.33742   3.90179   2.57000   1.00000   1.35747   0.05160  -0.00000  -0.17656  -0.00000   1.34642   2.04415   0.09953   0.26806 
        1   0.36450   4.24107   2.57000   1.00000   1.34701   0.04710  -0.00000  -0.17332  -0.00000   1.33635   2.20527   0.09770   0.28601 
        1   0.39159   4.58036   2.57000   1.00000   1.33753   0.04856   0.00001  -0.17235   0.00001   1.32690   2.36485   0.09549   0.30717 
        1   0.42266   5.01761   2.52998   1.00000   1.34213   0.04389  -0.04176  -0.17296  -0.04176   1.33146   2.65532   0.08966   0.34246 
        1   0.46171   5.55563   2.44995   1.00000   1.35946   0.04567  -0.04220  -0.17517  -0.04220   1.34866   3.07405   0.07607   0.39629 
        1   0.50478   6.09363   2.36992   1.00000   1.37222   0.04358  -0.04252  -0.17686  -0.04252   1.36132   3.51715   0.06048   0.45341 
        1   0.54784   6.63164   2.28990   1.00000   1.38566   0.04781  -0.04292  -0.17950  -0.04292   1.37451   3.99875   0.04239   0.51805 
        1   0.59090   7.16964   2.20987   1.00000   1.38823   0.04363  -0.04295  -0.18133  -0.04295   1.37681   4.48618   0.02320   0.58610 
        1   0.63396   7.70764   2.12986   1.00000   1.39423   0.04853  -0.04309  -0.18302  -0.04309   1.38262   5.02410   0.00154   0.65956 
        1   0.67703   8.24563   2.04985   1.00000   1.38570   0.04510  -0.04291  -0.18333  -0.04291   1.37393   5.54859  -0.02172   0.73425 
        1   0.72009   8.78362   1.96984   1.00000   1.37969   0.05122  -0.04266  -0.18370  -0.04266   1.36780   6.12227  -0.04542   0.81541 
        1   0.76315   9.32160   1.88984   1.00000   1.35094   0.04208  -0.04180  -0.18015  -0.04180   1.33925   6.63007  -0.07033   0.88437 
        1   0.80622   9.85958   1.80985   1.00000   1.32763   0.04771  -0.04103  -0.17892  -0.04103   1.31584   7.19385  -0.09710   0.96996 
        1   0.84928  10.39755   1.72986   1.00000   1.29137   0.05948  -0.04085  -0.17471  -0.04085   1.27980   7.71951  -0.13551   1.04436 
        1   0.89234  10.93551   1.64989   1.00000   1.22878   0.06925  -0.03961  -0.16592  -0.03961   1.21782   8.10008  -0.16336   1.09296 
        1   0.93541  11.47345   1.56992   1.00000   1.09999   0.07568  -0.03653  -0.14937  -0.03653   1.09004   7.99479  -0.18957   1.08401 
        1   0.97847  12.01139   1.48997   1.00000   0.85200   0.06552  -0.02753  -0.11785  -0.02753   0.84395   6.83169  -0.17903   0.94308 
        2   0.06644   0.13010   1.96250   1.00000   0.34735   0.01948  -0.00064  -0.03077  -0.00064   0.34681   0.02465  -1.98346  -0.00176 
        2   0.16624   0.39151   1.90750   1.00000   0.36030   0.01991   0.00001  -0.03151   0.00001   0.35980   0.07395  -2.12043   0.00653 
        2   0.23294   0.65292   1.85250   1.00000   0.36736   0.02036   0.00001  -0.03165   0.00001   0.36693   0.12943  -2.22918   0.01124 
        2   0.29964   0.91433   1.79750   1.00000   0.37316   0.02080   0.00002  -0.03213   0.00002   0.37272   0.18970  -2.33708   0.01647 
        2   0.36634   1.17574   1.74250   1.00000   0.37641   0.02038   0.00002  -0.03186   0.00002   0.37605   0.25384  -2.43577   0.02166 
        2   0.43304   1.43715   1.68750   1.00000   0.37945   0.02082   0.00003  -0.03260   0.00003   0.37902   0.32289  -2.53983   0.02795 
        2   0.49974   1.69855   1.63250   1.00000   0.37927   0.02006   0.00003  -0.03265   0.00003   0.37882   0.39425  -2.62789   0.03421 
        2   0.56644   1.95995   1.57750   1.00000   0.38016   0.02071   0.00004  -0.03262   0.00004   0.37974   0.47191  -2.73080   0.04080 
        2   0.63314   2.22136   1.52250   1.00000   0.38014   0.02192   0.00003  -0.03233   0.00003   0.37975   0.55420  -2.83711   0.04741 
        2   0.69984   2.48275   1.46750   1.00000   0.37522   0.02267   0.00004  -0.03201   0.00004   0.37483   0.63429  -2.91067   0.05445 
        2   0.76655   2.74415   1.41250   1.00000   0.36142   0.02180   0.00005  -0.03117   0.00005   0.36099   0.70142  -2.91691   0.06102 
        2   0.83325   3.00555   1.35750   1.00000   0.34020   0.02186   0.00007  -0.02907   0.00007   0.33984   0.75252  -2.86245   0.06495 
        2   0.89995   3.26694   1.30250   1.00000   0.30133   0.02027   0.00020  -0.02756   0.00020   0.30072   0.75411  -2.64981   0.07094 
        2   0.96665   3.52833   1.24750   1.00000   0.23851   0.01463   0.00124  -0.02033   0.00124   0.23826   0.67214  -2.19455   0.06914 



Comp      Component-Name                             Mach       AoA      Beta       CL        CDi       CS       CFx       CFy       CFz       Cmx       Cmy       Cmz 
1         wing                                       0.49000   9.00000   0.00000   0.67604   0.02747  -0.01143  -0.08864  -0.01143   0.67043   0.14847   0.02264   0.01964 
2         horizontal                                 0.49000   9.00000   0.00000   0.03837   0.00219   0.00001  -0.00331   0.00001   0.03832   0.00255  -0.18968   0.00022 
3         PodGeom                                    0.49000   9.00000   0.00000   0.00000   0.00000  -0.00003   0.00000  -0.00003   0.00000   0.00000   0.00000  -0.00001 
4         PodGeom                                    0.49000   9.00000   0.00000  -0.00000   0.00000   0.00001   0.00000   0.00001   0.00000  -0.00000   0.00000   0.00001 
5         PodGeom                                    0.49000   9.00000   0.00000   0.00038   0.00000  -0.00000  -0.00005  -0.00000   0.00037   0.00006  -0.00009   0.00001 
6         PodGeom                                    0.49000   9.00000   0.00000   0.00036   0.00000   0.00000  -0.00005   0.00000   0.00036   0.00006   0.00010   0.00001 



