 # GRANDEZZE ADIMENSIONALI
 
 # Cl        -> adim. risp. a Q e Sw
 # dT e T    -> adim. risp. a Q e Sw/2
 # dM e M    -> adim. risp. a Q , Sw/2 e b/2
 
 # Taglio totale adim  =        1.154191
 # Momento totale adim =    4.982431E-01
 
 #    eta          c[m]          Cl           cCl  dT           T            dM           
    1.00000      1.59000      0.25376      0.40348      0.00000      1.15419      0.00000      0.00000
    0.99500      1.59793      0.33008      0.52744      0.00101      0.00101      0.00000      0.00000
    0.98500      1.61379      0.48271      0.77899      0.00283      0.00383      0.00002      0.00003
    0.97500      1.62964      0.58847      0.95899      0.00376      0.00759      0.00006      0.00008
    0.96500      1.64550      0.66984      1.10222      0.00446      0.01205      0.00010      0.00018
    0.95500      1.66136      0.73558      1.22207      0.00503      0.01708      0.00015      0.00033
    0.94500      1.67721      0.79023      1.32538      0.00551      0.02259      0.00020      0.00053
    0.93500      1.69307      0.83651      1.41628      0.00593      0.02852      0.00026      0.00078
    0.92500      1.70893      0.87626      1.49746      0.00630      0.03482      0.00032      0.00110
    0.91500      1.72479      0.91074      1.57083      0.00664      0.04146      0.00038      0.00148
    0.90500      1.74064      0.94091      1.63778      0.00694      0.04840      0.00045      0.00193
    0.89500      1.75650      0.96747      1.69936      0.00722      0.05562      0.00052      0.00245
    0.88500      1.77236      0.99100      1.75640      0.00748      0.06309      0.00059      0.00304
    0.87500      1.78821      1.01193      1.80955      0.00771      0.07081      0.00067      0.00371
    0.86500      1.80407      1.03063      1.85934      0.00794      0.07874      0.00075      0.00446
    0.85500      1.81993      1.04740      1.90619      0.00815      0.08689      0.00083      0.00529
    0.84500      1.83579      1.06248      1.95048      0.00834      0.09523      0.00091      0.00620
    0.83500      1.85164      1.07607      1.99250      0.00853      0.10376      0.00099      0.00719
    0.82500      1.86750      1.08836      2.03251      0.00871      0.11247      0.00108      0.00827
    0.81500      1.88336      1.09948      2.07071      0.00888      0.12134      0.00117      0.00944
    0.80500      1.89921      1.10956      2.10730      0.00904      0.13038      0.00126      0.01070
    0.79500      1.91507      1.11872      2.14244      0.00919      0.13957      0.00135      0.01205
    0.78500      1.93093      1.12705      2.17626      0.00934      0.14891      0.00144      0.01349
    0.77500      1.94679      1.13463      2.20888      0.00949      0.15840      0.00154      0.01503
    0.76500      1.96264      1.14153      2.24041      0.00962      0.16802      0.00163      0.01666
    0.75500      1.97850      1.14781      2.27095      0.00976      0.17778      0.00173      0.01839
    0.74500      1.99436      1.15354      2.30057      0.00989      0.18767      0.00183      0.02022
    0.73500      2.01021      1.15875      2.32934      0.01001      0.19769      0.00193      0.02215
    0.72500      2.02607      1.16350      2.35734      0.01014      0.20782      0.00203      0.02417
    0.71500      2.04193      1.16782      2.38461      0.01026      0.21808      0.00213      0.02630
    0.70500      2.05779      1.17175      2.41121      0.01037      0.22845      0.00223      0.02854
    0.69500      2.07364      1.17531      2.43718      0.01049      0.23894      0.00234      0.03087
    0.68500      2.08950      1.17854      2.46256      0.01060      0.24954      0.00244      0.03332
    0.67500      2.10536      1.18146      2.48740      0.01071      0.26025      0.00255      0.03586
    0.66500      2.12121      1.18409      2.51171      0.01081      0.27106      0.00266      0.03852
    0.65500      2.13707      1.18646      2.53554      0.01092      0.28198      0.00277      0.04129
    0.64500      2.15293      1.18857      2.55891      0.01102      0.29300      0.00287      0.04416
    0.63500      2.16879      1.19045      2.58184      0.01112      0.30412      0.00299      0.04715
    0.62500      2.18464      1.19212      2.60435      0.01122      0.31534      0.00310      0.05024
    0.61500      2.20050      1.19358      2.62646      0.01131      0.32665      0.00321      0.05345
    0.60500      2.21636      1.19484      2.64820      0.01141      0.33806      0.00332      0.05678
    0.59500      2.23221      1.19593      2.66957      0.01150      0.34956      0.00344      0.06022
    0.58500      2.24807      1.19685      2.69060      0.01159      0.36116      0.00355      0.06377
    0.57500      2.26393      1.19760      2.71129      0.01168      0.37284      0.00367      0.06744
    0.56500      2.27979      1.19821      2.73165      0.01177      0.38462      0.00379      0.07123
    0.55500      2.29564      1.19866      2.75170      0.01186      0.39648      0.00391      0.07513
    0.54500      2.31150      1.19898      2.77145      0.01195      0.40843      0.00402      0.07916
    0.53500      2.32736      1.19917      2.79089      0.01203      0.42046      0.00414      0.08330
    0.52500      2.34321      1.19923      2.81005      0.01212      0.43257      0.00427      0.08757
    0.51500      2.35907      1.19917      2.82893      0.01220      0.44477      0.00439      0.09195
    0.50500      2.37493      1.19900      2.84753      0.01228      0.45705      0.00451      0.09646
    0.49500      2.39079      1.19871      2.86586      0.01236      0.46941      0.00463      0.10109
    0.48500      2.40664      1.19832      2.88392      0.01244      0.48184      0.00476      0.10585
    0.47500      2.42250      1.19782      2.90171      0.01251      0.49436      0.00488      0.11073
    0.46500      2.43836      1.19722      2.91925      0.01259      0.50695      0.00501      0.11574
    0.45500      2.45421      1.19652      2.93653      0.01267      0.51962      0.00513      0.12087
    0.44500      2.47007      1.19573      2.95355      0.01274      0.53236      0.00526      0.12613
    0.43500      2.48593      1.19485      2.97031      0.01281      0.54517      0.00539      0.13152
    0.42500      2.50179      1.19388      2.98682      0.01289      0.55806      0.00552      0.13703
    0.41500      2.51764      1.19281      3.00308      0.01296      0.57101      0.00565      0.14268
    0.40500      2.53350      1.19167      3.01908      0.01303      0.58404      0.00578      0.14846
    0.39500      2.54936      1.19043      3.03483      0.01310      0.59714      0.00591      0.15436
    0.38500      2.56521      1.18911      3.05033      0.01316      0.61030      0.00604      0.16040
    0.37500      2.58107      1.18771      3.06557      0.01323      0.62353      0.00617      0.16657
    0.36500      2.59693      1.18623      3.08055      0.01329      0.63682      0.00630      0.17287
    0.35500      2.61279      1.18466      3.09527      0.01336      0.65018      0.00644      0.17930
    0.34500      2.62864      1.18302      3.10974      0.01342      0.66360      0.00657      0.18587
    0.33500      2.64450      1.18130      3.12396      0.01348      0.67709      0.00670      0.19258
    0.32500      2.66036      1.17952      3.13793      0.01355      0.69063      0.00684      0.19942
    0.31500      2.67621      1.17767      3.15168      0.01361      0.70424      0.00697      0.20639
    0.30500      2.69207      1.17578      3.16528      0.01366      0.71790      0.00711      0.21350
    0.29500      2.70000      1.17746      3.17914      0.01372      0.73163      0.00725      0.22075
    0.28500      2.70000      1.18215      3.19181      0.01378      0.74541      0.00739      0.22813
    0.27500      2.70000      1.18661      3.20385      0.01383      0.75924      0.00752      0.23566
    0.26500      2.70000      1.19089      3.21540      0.01389      0.77313      0.00766      0.24332
    0.25500      2.70000      1.19500      3.22651      0.01393      0.78706      0.00780      0.25112
    0.24500      2.70000      1.19897      3.23722      0.01398      0.80104      0.00794      0.25906
    0.23500      2.70000      1.20280      3.24756      0.01403      0.81507      0.00808      0.26714
    0.22500      2.70000      1.20650      3.25755      0.01407      0.82914      0.00822      0.27536
    0.21500      2.70000      1.21007      3.26719      0.01411      0.84326      0.00836      0.28372
    0.20500      2.70000      1.21352      3.27650      0.01415      0.85741      0.00850      0.29223
    0.19500      2.70000      1.21685      3.28549      0.01419      0.87160      0.00865      0.30087
    0.18500      2.70000      1.22006      3.29415      0.01423      0.88584      0.00879      0.30966
    0.17500      2.70000      1.22315      3.30250      0.01427      0.90011      0.00893      0.31859
    0.16500      2.70000      1.22612      3.31053      0.01430      0.91441      0.00907      0.32766
    0.15500      2.70000      1.22898      3.31824      0.01434      0.92875      0.00922      0.33688
    0.14500      2.70000      1.23171      3.32562      0.01437      0.94312      0.00936      0.34624
    0.13500      2.70000      1.23432      3.33267      0.01440      0.95752      0.00950      0.35574
    0.12500      2.70000      1.23681      3.33939      0.01443      0.97196      0.00965      0.36539
    0.11500      2.70000      1.23917      3.34576      0.01446      0.98642      0.00979      0.37518
    0.10500      2.70000      1.24140      3.35177      0.01449      1.00090      0.00994      0.38512
    0.09500      2.70000      1.24349      3.35741      0.01451      1.01542      0.01008      0.39520
    0.08500      2.70000      1.24544      3.36268      0.01454      1.02995      0.01023      0.40542
    0.07500      2.70000      1.24723      3.36753      0.01456      1.04451      0.01037      0.41580
    0.06500      2.70000      1.24888      3.37196      0.01458      1.05909      0.01052      0.42631
    0.05500      2.70000      1.25035      3.37595      0.01460      1.07368      0.01066      0.43698
    0.04500      2.70000      1.25165      3.37945      0.01461      1.08830      0.01081      0.44779
    0.03500      2.70000      1.25275      3.38243      0.01463      1.10292      0.01096      0.45874
    0.02500      2.70000      1.25364      3.38484      0.01464      1.11756      0.01110      0.46985
    0.01500      2.70000      1.25430      3.38661      0.01465      1.13221      0.01125      0.48110
    0.00500      2.70000      1.25468      3.38763      0.01465      1.14686      0.01140      0.49249
    0.00000      2.70000      1.25487      3.38814      0.00733      1.15419      0.00575      0.49824
